<?xml version="1.0" encoding="UTF-8"?>
<xrdMeasurements xmlns="http://www.xrdml.com/XRDMeasurement/2.0" xmlns:xsi="http://www.w3.org/2001/XMLSchema-instance" xsi:schemaLocation="http://www.xrdml.com/XRDMeasurement/2.0 http://www.xrdml.com/XRDMeasurement/2.0/XRDMeasurement.xsd" status="Completed">
	<comment>
		<entry>Configuration=standard, Owner=User-1, Creation date=23/9/2016 11:35:42 AM</entry>
		<entry>Goniometer=HR HD (Theta/2Theta); Minimum step size 2Theta:0.0001; Minimum step size Omega:0.0001</entry>
		<entry>Sample stage=MRD Cradle; Minimum step size Phi:0.01; Minimum step size Chi:0.01; Minimum step size X:0.01; Minimum step size Y:0.01; Minimum step size Z:0.001</entry>
		<entry>Diffractometer system=XPERT-3</entry>
		<entry>Measurement program=C:\XRD Data\Programs\External\Antonius\02-Measurment\XRR_hybrid_1x_5deg_80min.xrdmp, Identifier={6322B8BB-4121-400E-A4C2-4D38BD47071C}</entry>
		<entry>Fine Calibration Offset for 2Theta = -0.0035 deg</entry>
	</comment>
	<sample type="To be analyzed">
		<id></id>
		<name></name>
		<preparedBy></preparedBy>
	</sample>
	<xrdMeasurement measurementType="Scan" status="Completed" sampleMode="Reflection">
		<comment>
			<entry>PHD Lower Level = 5.63 (keV), PHD Upper Level = 12.87 (keV)</entry>
		</comment>
		<usedWavelength intended="K-Alpha">
			<kAlpha1 unit="Angstrom">1.5405980</kAlpha1>
			<kAlpha2 unit="Angstrom">1.5444260</kAlpha2>
			<kBeta unit="Angstrom">1.3922500</kBeta>
			<ratioKAlpha2KAlpha1>0.5000</ratioKAlpha2KAlpha1>
		</usedWavelength>
		<incidentBeamPath>
			<radius unit="mm">320.00</radius>
			<xRayTube id="1010048" name="Empyrean Cu LFF HR (9430 033 7310x) DK411951">
				<tension unit="kV">45.0</tension>
				<current unit="mA">40.0</current>
				<anodeMaterial>Cu</anodeMaterial>
				<focus type="Line">
					<length unit="mm">12.0</length>
					<width unit="mm">0.4</width>
					<takeOffAngle unit="deg">2.5</takeOffAngle>
				</focus>
			</xRayTube>
			<xRayMirror id="27090001" name="Inc. Beam Cu W/Si (hybrid MRD)" hybrid="true">
				<crystal type="Graded" shape="Parabolic">W/Si</crystal>
				<acceptanceAngle unit="deg">0.800</acceptanceAngle>
				<length unit="mm">60.0</length>
			</xRayMirror>
			<monochromator id="23090002" name="Hybrid monochr. 2xGe(220) Cu asym." hybrid="true">
				<crystal type="Asymmetric" shape="Flat">Ge</crystal>
				<numberOfReflections>2</numberOfReflections>
				<hkl>
					<h>2</h>
					<k>2</k>
					<l>0</l>
				</hkl>
			</monochromator>
			<divergenceSlit id="22010011" name="Fixed slit 1/32°" xsi:type="fixedDivergenceSlitType">
				<distanceToSample unit="mm">220.00</distanceToSample>
				<height unit="mm">0.05</height>
			</divergenceSlit>
		</incidentBeamPath>
		<sampleOffset>
			<position axis="2Theta" unit="deg">0.0000</position>
			<position axis="Omega" unit="deg">-0.0900</position>
			<position axis="Chi" unit="deg">0.08</position>
			<position axis="Z" unit="mm">-8.376</position>
		</sampleOffset>
		<diffractedBeamPath>
			<radius unit="mm">320.00</radius>
			<parallelPlateCollimator id="25010001" name="Parallel plate collimator 0.27°">
				<opening unit="deg">0.27</opening>
			</parallelPlateCollimator>
			<beamAttenuator id="26010001" name="Progr. beam attenuator Ni 0.125 mm" xsi:type="intensitySwitchedBeamAttenuatorType">
				<factor>182.00</factor>
				<material>Ni</material>
				<activateLevel unit="counts per second">500000</activateLevel>
				<deactivateLevel unit="counts per second">400000</deactivateLevel>
			</beamAttenuator>
			<receivingSlit id="22070001" name="Parallel plate collimator slit">
				<height unit="mm">0.10</height>
			</receivingSlit>
			<detector id="7010011" name="Proportional detector Xe" xsi:type="pointDetectorType">
				<phd unit="%">
					<lowerLevel>35.0</lowerLevel>
					<upperLevel>80.0</upperLevel>
				</phd>
			</detector>
		</diffractedBeamPath>
		<scan appendNumber="0" mode="Continuous" scanAxis="2Theta-Omega" status="Completed">
			<header>
				<startTimeStamp>2025-04-11T09:43:54+02:00</startTimeStamp>
				<endTimeStamp>2025-04-11T11:07:04+02:00</endTimeStamp>
				<author>
					<name>User</name>
				</author>
				<source>
					<applicationSoftware version="6.0a">Data Collector</applicationSoftware>
					<instrumentControlSoftware version="7.4b 20181204">XPERT-3</instrumentControlSoftware>
					<instrumentID>0000000011183189</instrumentID>
				</source>
			</header>
			<dataPoints>
				<positions axis="2Theta" unit="deg">
					<startPosition>0.0325</startPosition>
					<endPosition>4.9975</endPosition>
				</positions>
				<positions axis="Omega" unit="deg">
					<startPosition>0.01625</startPosition>
					<endPosition>2.49875</endPosition>
				</positions>
				<positions axis="Phi" unit="deg">
					<commonPosition>0.00</commonPosition>
				</positions>
				<positions axis="Chi" unit="deg">
					<commonPosition>0.00</commonPosition>
				</positions>
				<positions axis="X" unit="mm">
					<commonPosition>0.00</commonPosition>
				</positions>
				<positions axis="Y" unit="mm">
					<commonPosition>0.00</commonPosition>
				</positions>
				<positions axis="Z" unit="mm">
					<commonPosition>0.000</commonPosition>
				</positions>
				<beamAttenuationFactors>182.00 182.00 182.00 182.00 182.00 182.00 182.00 182.00 182.00 182.00 182.00 182.00 182.00 182.00 182.00 182.00 182.00 182.00 182.00 182.00 182.00 182.00 182.00 182.00 182.00 182.00 182.00 182.00 182.00 182.00 182.00 182.00 182.00 182.00 182.00 182.00 182.00 182.00 182.00 182.00 182.00 182.00 182.00 182.00 182.00 182.00 182.00 182.00 182.00 182.00 182.00 182.00 182.00 182.00 182.00 182.00 182.00 182.00 182.00 182.00 182.00 182.00 182.00 182.00 182.00 182.00 182.00 182.00 182.00 182.00 182.00 182.00 182.00 182.00 182.00 182.00 182.00 182.00 182.00 182.00 182.00 182.00 182.00 182.00 182.00 182.00 182.00 182.00 182.00 182.00 182.00 182.00 182.00 182.00 182.00 182.00 182.00 182.00 182.00 182.00 182.00 182.00 182.00 182.00 182.00 182.00 182.00 182.00 182.00 182.00 1.00 1.00 1.00 1.00 1.00 1.00 1.00 1.00 1.00 1.00 1.00 1.00 1.00 1.00 1.00 1.00 1.00 1.00 1.00 1.00 1.00 1.00 1.00 1.00 1.00 1.00 1.00 1.00 1.00 1.00 1.00 1.00 1.00 1.00 1.00 1.00 1.00 1.00 1.00 1.00 1.00 1.00 1.00 1.00 1.00 1.00 1.00 1.00 1.00 1.00 1.00 1.00 1.00 1.00 1.00 1.00 1.00 1.00 1.00 1.00 1.00 1.00 1.00 1.00 1.00 1.00 1.00 1.00 1.00 1.00 1.00 1.00 1.00 1.00 1.00 1.00 1.00 1.00 1.00 1.00 1.00 1.00 1.00 1.00 1.00 1.00 1.00 1.00 1.00 1.00 1.00 1.00 1.00 1.00 1.00 1.00 1.00 1.00 1.00 1.00 1.00 1.00 1.00 1.00 1.00 1.00 1.00 1.00 1.00 1.00 1.00 1.00 1.00 1.00 1.00 1.00 1.00 1.00 1.00 1.00 1.00 1.00 1.00 1.00 1.00 1.00 1.00 1.00 1.00 1.00 1.00 1.00 1.00 1.00 1.00 1.00 1.00 1.00 1.00 1.00 1.00 1.00 1.00 1.00 1.00 1.00 1.00 1.00 1.00 1.00 1.00 1.00 1.00 1.00 1.00 1.00 1.00 1.00 1.00 1.00 1.00 1.00 1.00 1.00 1.00 1.00 1.00 1.00 1.00 1.00 1.00 1.00 1.00 1.00 1.00 1.00 1.00 1.00 1.00 1.00 1.00 1.00 1.00 1.00 1.00 1.00 1.00 1.00 1.00 1.00 1.00 1.00 1.00 1.00 1.00 1.00 1.00 1.00 1.00 1.00 1.00 1.00 1.00 1.00 1.00 1.00 1.00 1.00 1.00 1.00 1.00 1.00 1.00 1.00 1.00 1.00 1.00 1.00 1.00 1.00 1.00 1.00 1.00 1.00 1.00 1.00 1.00 1.00 1.00 1.00 1.00 1.00 1.00 1.00 1.00 1.00 1.00 1.00 1.00 1.00 1.00 1.00 1.00 1.00 1.00 1.00 1.00 1.00 1.00 1.00 1.00 1.00 1.00 1.00 1.00 1.00 1.00 1.00 1.00 1.00 1.00 1.00 1.00 1.00 1.00 1.00 1.00 1.00 1.00 1.00 1.00 1.00 1.00 1.00 1.00 1.00 1.00 1.00 1.00 1.00 1.00 1.00 1.00 1.00 1.00 1.00 1.00 1.00 1.00 1.00 1.00 1.00 1.00 1.00 1.00 1.00 1.00 1.00 1.00 1.00 1.00 1.00 1.00 1.00 1.00 1.00 1.00 1.00 1.00 1.00 1.00 1.00 1.00 1.00 1.00 1.00 1.00 1.00 1.00 1.00 1.00 1.00 1.00 1.00 1.00 1.00 1.00 1.00 1.00 1.00 1.00 1.00 1.00 1.00 1.00 1.00 1.00 1.00 1.00 1.00 1.00 1.00 1.00 1.00 1.00 1.00 1.00 1.00 1.00 1.00 1.00 1.00 1.00 1.00 1.00 1.00 1.00 1.00 1.00 1.00 1.00 1.00 1.00 1.00 1.00 1.00 1.00 1.00 1.00 1.00 1.00 1.00 1.00 1.00 1.00 1.00 1.00 1.00 1.00 1.00 1.00 1.00 1.00 1.00 1.00 1.00 1.00 1.00 1.00 1.00 1.00 1.00 1.00 1.00 1.00 1.00 1.00 1.00 1.00 1.00 1.00 1.00 1.00 1.00 1.00 1.00 1.00 1.00 1.00 1.00 1.00 1.00 1.00 1.00 1.00 1.00 1.00 1.00 1.00 1.00 1.00 1.00 1.00 1.00 1.00 1.00 1.00 1.00 1.00 1.00 1.00 1.00 1.00 1.00 1.00 1.00 1.00 1.00 1.00 1.00 1.00 1.00 1.00 1.00 1.00 1.00 1.00 1.00 1.00 1.00 1.00 1.00 1.00 1.00 1.00 1.00 1.00 1.00 1.00 1.00 1.00 1.00 1.00 1.00 1.00 1.00 1.00 1.00 1.00 1.00 1.00 1.00 1.00 1.00 1.00 1.00 1.00 1.00 1.00 1.00 1.00 1.00 1.00 1.00 1.00 1.00 1.00 1.00 1.00 1.00 1.00 1.00 1.00 1.00 1.00 1.00 1.00 1.00 1.00 1.00 1.00 1.00 1.00 1.00 1.00 1.00 1.00 1.00 1.00 1.00 1.00 1.00 1.00 1.00 1.00 1.00 1.00 1.00 1.00 1.00 1.00 1.00 1.00 1.00 1.00 1.00 1.00 1.00 1.00 1.00 1.00 1.00 1.00 1.00 1.00 1.00 1.00 1.00 1.00 1.00 1.00 1.00 1.00 1.00 1.00 1.00 1.00 1.00 1.00 1.00 1.00 1.00 1.00 1.00 1.00 1.00 1.00 1.00 1.00 1.00 1.00 1.00 1.00 1.00 1.00 1.00 1.00 1.00 1.00 1.00 1.00 1.00 1.00 1.00 1.00 1.00 1.00 1.00 1.00 1.00 1.00 1.00 1.00 1.00 1.00 1.00 1.00 1.00 1.00 1.00 1.00 1.00 1.00 1.00 1.00 1.00 1.00 1.00 1.00 1.00 1.00 1.00 1.00 1.00 1.00 1.00 1.00 1.00 1.00 1.00 1.00 1.00 1.00 1.00 1.00 1.00 1.00 1.00 1.00 1.00 1.00 1.00 1.00 1.00 1.00 1.00 1.00 1.00 1.00 1.00 1.00 1.00 1.00 1.00 1.00 1.00 1.00 1.00 1.00 1.00 1.00 1.00 1.00 1.00 1.00 1.00 1.00 1.00 1.00 1.00 1.00 1.00 1.00 1.00 1.00 1.00 1.00 1.00 1.00 1.00 1.00 1.00 1.00 1.00 1.00 1.00 1.00 1.00 1.00 1.00 1.00 1.00 1.00 1.00 1.00 1.00 1.00 1.00 1.00 1.00 1.00 1.00 1.00 1.00 1.00 1.00 1.00 1.00 1.00 1.00 1.00 1.00 1.00 1.00 1.00 1.00 1.00 1.00 1.00 1.00 1.00 1.00 1.00 1.00 1.00 1.00 1.00 1.00 1.00 1.00 1.00 1.00 1.00 1.00 1.00 1.00 1.00 1.00 1.00 1.00 1.00 1.00 1.00 1.00 1.00 1.00 1.00 1.00 1.00 1.00 1.00 1.00 1.00 1.00 1.00 1.00 1.00 1.00 1.00 1.00 1.00 1.00 1.00 1.00 1.00 1.00 1.00 1.00 1.00 1.00 1.00 1.00 1.00 1.00 1.00 1.00 1.00 1.00 1.00 1.00 1.00 1.00 1.00 1.00 1.00 1.00 1.00 1.00 1.00 1.00 1.00 1.00 1.00 1.00 1.00 1.00 1.00 1.00 1.00 1.00 1.00 1.00 1.00 1.00 1.00 1.00 1.00 1.00 1.00 1.00 1.00 1.00 1.00 1.00 1.00 1.00 1.00 1.00 1.00 1.00 1.00 1.00 1.00 1.00 1.00 1.00 1.00 1.00 1.00 1.00 1.00 1.00 1.00 1.00 1.00 1.00 1.00 1.00 1.00 1.00 1.00 1.00 1.00 1.00 1.00 1.00 1.00 1.00 1.00 1.00 1.00 1.00 1.00 1.00 1.00 1.00 1.00 1.00 1.00 1.00 1.00 1.00 1.00 1.00 1.00 1.00 1.00 1.00 1.00 1.00 1.00 1.00 1.00 1.00 1.00 1.00 1.00 1.00 1.00 1.00 1.00 1.00 1.00 1.00 1.00 1.00 1.00 1.00 1.00 1.00 1.00 1.00 1.00 1.00 1.00 1.00 1.00 1.00 1.00 1.00 1.00 1.00 1.00 1.00</beamAttenuationFactors>
				<commonCountingTime unit="seconds">5.00</commonCountingTime>
				<counts unit="counts">20991 16450 15251 15310 16291 17678 18967 20236 21688 23463 24656 26179 27995 29232 30606 32144 33689 35056 36628 38080 39992 40870 42227 44069 45287 46739 48263 49105 51060 52486 53608 54537 56044 57999 58940 60608 61361 62588 63956 65448 67138 68400 69852 70853 72152 73603 74376 76058 77668 78618 79422 80491 82295 83352 84649 85025 86792 87992 88600 89994 91183 92384 92666 94177 95314 95484 96833 98763 99887 100605 101552 102567 103585 104026 105076 106502 107096 107410 109466 109430 110022 110339 110751 111908 112231 113428 113511 113224 112345 111232 108644 104787 96608 85016 72157 60549 52432 45937 40541 33596 27660 24052 22927 24006 24607 23207 20487 17089 13936 11406 1747520 1814264 1981141 2121314 2196378 2144416 1965275 1693827 1400371 1149934 967872 885123 907262 999960 1109899 1201063 1250042 1237161 1161116 1033881 892326 751422 624626 532911 492498 498229 535609 589836 650478 703117 729470 717476 679601 619885 538847 454385 383888 329126 294593 281986 293012 320379 355643 388225 419285 437047 436768 418487 385320 345219 296614 250069 212394 186202 172465 170466 180568 199247 220968 240599 257830 270456 272313 262323 244583 220777 192578 163714 139163 121357 109652 104937 108189 118393 130574 143873 157415 168574 174165 173160 166499 154793 138529 121230 103398 89409 76693 68971 66634 68524 74273 81866 91607 101301 109653 112479 113213 110735 103561 94776 83951 73200 62465 53057 46964 44045 43193 45157 50757 56717 63653 69109 73363 75492 75256 72344 68131 62042 54465 47590 40087 34685 30259 28409 28168 30288 34062 38218 42558 46706 49270 50692 51171 49572 46678 42395 37389 31981 27586 23183 20387 18981 19073 20330 22064 25048 28625 31056 33604 35609 35623 34674 32647 30463 27045 23155 19913 16716 14325 12748 12607 13022 14239 15843 18542 20533 22824 24331 24505 24598 23240 21743 19864 17320 14868 12339 10433 9245 8545 8349 9014 10459 11889 13439 14973 16481 17078 17274 17164 16490 15034 13225 11774 9772 8162 6721 5985 5582 5894 6269 7423 8531 9386 10538 11527 11987 12275 12001 11103 10517 9126 7860 6453 5437 4572 4056 3754 4001 4360 4997 5939 6990 7796 8210 8615 8789 8422 7961 7193 6257 5291 4443 3763 3071 2596 2489 2660 3042 3482 4259 4838 5573 5944 6067 6174 6081 5594 5169 4341 3873 3131 2525 2083 1756 1690 1786 2098 2450 2893 3378 3842 4122 4476 4485 4466 4212 3779 3411 2652 2245 1805 1390 1216 1046 1219 1268 1645 1970 2361 2708 3098 3193 3268 3170 2980 2743 2271 2044 1654 1283 994 779 720 758 893 1080 1272 1564 1830 2089 2190 2249 2285 2171 1948 1764 1463 1212 887 703 538 480 456 562 733 841 1103 1251 1488 1636 1644 1693 1631 1392 1276 1101 847 706 535 395 308 308 334 448 588 695 878 994 1142 1236 1265 1193 1127 957 856 727 480 396 301 205 202 203 247 375 457 554 701 751 911 931 858 842 763 618 529 394 260 211 139 142 119 136 222 279 382 468 580 596 632 644 643 579 489 389 303 246 139 115 90 82 105 153 203 242 292 384 418 455 487 413 402 360 339 261 213 116 76 63 40 65 75 120 144 229 254 287 334 329 322 300 310 259 203 144 106 75 47 35 37 41 77 105 158 157 186 246 226 259 233 225 199 168 118 101 67 48 37 27 32 51 56 112 112 146 163 193 190 178 176 160 121 93 78 48 33 21 18 23 43 56 81 86 115 114 145 121 144 116 107 113 90 53 58 35 26 20 24 21 30 47 59 84 92 84 94 103 101 86 95 72 49 42 29 17 22 23 22 21 49 40 61 51 78 77 70 75 73 51 61 48 44 22 17 23 15 29 17 28 37 50 38 42 59 53 56 51 57 53 37 40 27 20 20 16 24 12 23 33 28 45 47 60 42 36 40 37 38 24 21 21 17 14 22 26 21 16 30 29 37 46 36 37 39 36 27 25 29 25 31 15 13 22 26 21 28 28 24 36 40 29 28 44 38 24 16 18 21 14 15 26 15 18 24 28 24 31 30 33 37 32 27 21 18 17 16 15 11 7 18 18 12 20 23 21 28 28 30 24 32 24 20 33 21 9 10 10 19 10 11 18 19 27 19 18 22 17 16 21 22 19 18 13 12 9 10 9 11 13 16 10 19 16 12 31 20 27 19 15 13 15 27 7 9 7 8 6 7 6 9 10 21 16 20 20 14 18 25 13 19 16 5 10 11 6 9 5 11 10 6 22 12 16 22 18 13 19 19 10 21 8 5 6 7 7 2 6 11 9 11 14 14 15 14 21 19 13 17 10 8 10 6 9 3 7 4 10 4 6 7 12 9 13 16 18 15 14 19 10 18 9 5 6 7 4 6 8 6 10 6 6 10 10 17 19 16 10 18 5 9 9 4 4 3 7 9 4 14 9 2 12 11 7 9 15 8 11 7 8 5 7 4 4 5 6 3 4 7 7 11 10 8 9 12 12 8 9 6 8 7 4 2 6 2 4 3 10 5 11 11 10 6 8 10 11 10 6 4 3 3 5 4 3 1 5 1 8 5 6 11 8 10 11 7 14 9 11 4 7 5 2 3 3 1 2 4 10 4 7 5 7 13 8 6 8 13 7 3 3 8 2 1 5 1 5 6 2 4 6 5 8 8 8 12 5</counts>
			</dataPoints>
		</scan>
	</xrdMeasurement>
</xrdMeasurements>
