<?xml version="1.0" encoding="UTF-8"?>
<xrdMeasurements xmlns="http://www.xrdml.com/XRDMeasurement/1.3" xmlns:xsi="http://www.w3.org/2001/XMLSchema-instance" xsi:schemaLocation="http://www.xrdml.com/XRDMeasurement/1.3 http://www.xrdml.com/XRDMeasurement/1.3/XRDMeasurement.xsd" status="Completed">
	<comment>
		<entry>Goniometer=PW3050/60 (Theta/Theta); Minimum step size 2Theta:0.001; Minimum step size Omega:0.001</entry>
		<entry>Sample stage=MPSS (vertical system); Minimum step size Phi:2.5</entry>
		<entry>Diffractometer system=XPERT-PRO</entry>
		<entry>Fine Calibration Offset for 2Theta = -0.067 deg</entry>
	</comment>
	<sample type="To be analyzed">
		<id></id>
		<name></name>
		<preparedBy></preparedBy>
	</sample>
	<xrdMeasurement measurementType="Scan" status="Completed" sampleMode="Reflection">
		<comment>
			<entry>Standard Reflectometry Scan, 1/32°, 0.1mm, Step size = 0.010°, Time per step = 1.0s</entry>
		</comment>
		<usedWavelength intended="K-Alpha 1">
			<kAlpha1 unit="Angstrom">1.5405980</kAlpha1>
			<kAlpha2 unit="Angstrom">1.5444260</kAlpha2>
			<kBeta unit="Angstrom">1.3922500</kBeta>
			<ratioKAlpha2KAlpha1>0.5000</ratioKAlpha2KAlpha1>
		</usedWavelength>
		<incidentBeamPath>
			<radius unit="mm">240.00</radius>
			<xRayTube id="1010041" name="PW3373/00 Cu LFF DK439338">
				<tension unit="kV">45</tension>
				<current unit="mA">40</current>
				<anodeMaterial>Cu</anodeMaterial>
				<focus type="Line">
					<length unit="mm">12.0</length>
					<width unit="mm">0.4</width>
					<takeOffAngle unit="deg">6.0</takeOffAngle>
				</focus>
			</xRayTube>
			<sollerSlit id="21010002" name="Soller 0.04 rad.">
				<opening unit="rad">0.0400</opening>
			</sollerSlit>
			<mask id="22080001" name="Inc. Mask Fixed  5 mm (MPD/MRD)">
				<distanceToSample unit="mm">140.00</distanceToSample>
				<width unit="mm">1.60</width>
			</mask>
			<divergenceSlit id="22010012" name="Prog. Div. Slit" xsi:type="fixedDivergenceSlitType">
				<distanceToSample unit="mm">140.00</distanceToSample>
				<angle unit="deg">0.03125</angle>
			</divergenceSlit>
			<beamAttenuator id="26010001" name="Ni 0.125 mm automatic" xsi:type="intensitySwitchedBeamAttenuatorType">
				<factor>131.32</factor>
				<material>Ni</material>
				<activateLevel unit="counts per second">500000</activateLevel>
				<deactivateLevel unit="counts per second">400000</deactivateLevel>
			</beamAttenuator>
		</incidentBeamPath>
		<sampleOffset>
			<position axis="Omega" unit="deg">-0.022</position>
		</sampleOffset>
		<diffractedBeamPath>
			<radius unit="mm">240.00</radius>
			<antiScatterSlit id="22060009" name="Prog. AS Slit" xsi:type="fixedAntiScatterSlitType">
				<angle unit="deg">0.03125</angle>
			</antiScatterSlit>
			<sollerSlit id="21010002" name="Soller 0.04 rad.">
				<opening unit="rad">0.0400</opening>
			</sollerSlit>
			<monochromator id="23010019" name="Diffr. Beam Curved 1x graphite for Cu" hybrid="false">
				<crystal type="Symmetric" shape="Curved">C</crystal>
				<numberOfReflections>1</numberOfReflections>
				<hkl>
					<h>0</h>
					<k>0</k>
					<l>2</l>
				</hkl>
			</monochromator>
			<receivingSlit id="22020009" name="Prog. Rec. Slit">
				<height unit="mm">0.10</height>
			</receivingSlit>
			<detector id="7010011" name="PW3011/20 (Miniprop. large window)" xsi:type="pointDetectorType">
				<phd>
					<lowerLevel unit="%">35.0</lowerLevel>
					<upperLevel unit="%">80.0</upperLevel>
				</phd>
			</detector>
		</diffractedBeamPath>
		<scan appendNumber="0" mode="Continuous" scanAxis="Gonio" status="Completed">
			<header>
				<startTimeStamp>2025-03-27T13:17:32+01:00</startTimeStamp>
				<endTimeStamp>2025-03-27T13:34:32+01:00</endTimeStamp>
				<author>
					<name>Christian Sterwerf</name>
				</author>
				<source>
					<applicationSoftware version="2.2g">X'Pert Data Collector</applicationSoftware>
					<instrumentControlSoftware version="2.1A">XPERT-PRO</instrumentControlSoftware>
					<instrumentID>0000000000150117</instrumentID>
				</source>
			</header>
			<dataPoints>
				<positions axis="2Theta" unit="deg">
					<startPosition>0.005</startPosition>
					<endPosition>9.995</endPosition>
				</positions>
				<positions axis="Omega" unit="deg">
					<startPosition>0.0025</startPosition>
					<endPosition>4.9975</endPosition>
				</positions>
				<positions axis="Phi" unit="deg">
					<commonPosition>180.0</commonPosition>
				</positions>
				<beamAttenuationFactors>131.32 131.32 131.32 131.32 131.32 1.00 1.00 1.00 1.00 1.00 1.00 1.00 1.00 1.00 1.00 131.32 131.32 131.32 131.32 131.32 131.32 131.32 131.32 131.32 131.32 131.32 131.32 131.32 131.32 131.32 131.32 131.32 131.32 131.32 131.32 131.32 131.32 131.32 131.32 131.32 131.32 131.32 131.32 131.32 131.32 131.32 131.32 131.32 131.32 131.32 131.32 131.32 131.32 131.32 131.32 131.32 131.32 131.32 131.32 131.32 131.32 131.32 131.32 131.32 131.32 131.32 131.32 131.32 131.32 131.32 131.32 131.32 131.32 131.32 131.32 131.32 1.00 1.00 1.00 1.00 1.00 1.00 1.00 1.00 1.00 1.00 1.00 1.00 1.00 1.00 1.00 1.00 1.00 1.00 1.00 1.00 1.00 1.00 1.00 1.00 1.00 1.00 1.00 1.00 1.00 1.00 1.00 1.00 1.00 1.00 1.00 1.00 1.00 1.00 1.00 1.00 1.00 1.00 1.00 1.00 1.00 1.00 1.00 1.00 1.00 1.00 1.00 1.00 1.00 1.00 1.00 1.00 1.00 1.00 1.00 1.00 1.00 1.00 1.00 1.00 1.00 1.00 1.00 1.00 1.00 1.00 1.00 1.00 1.00 1.00 1.00 1.00 1.00 1.00 1.00 1.00 1.00 1.00 1.00 1.00 1.00 1.00 1.00 1.00 1.00 1.00 1.00 1.00 1.00 1.00 1.00 1.00 1.00 1.00 1.00 1.00 1.00 1.00 1.00 1.00 1.00 1.00 1.00 1.00 1.00 1.00 1.00 1.00 1.00 1.00 1.00 1.00 1.00 1.00 1.00 1.00 1.00 1.00 1.00 1.00 1.00 1.00 1.00 1.00 1.00 1.00 1.00 1.00 1.00 1.00 1.00 1.00 1.00 1.00 1.00 1.00 1.00 1.00 1.00 1.00 1.00 1.00 1.00 1.00 1.00 1.00 1.00 1.00 1.00 1.00 1.00 1.00 1.00 1.00 1.00 1.00 1.00 1.00 1.00 1.00 1.00 1.00 1.00 1.00 1.00 1.00 1.00 1.00 1.00 1.00 1.00 1.00 1.00 1.00 1.00 1.00 1.00 1.00 1.00 1.00 1.00 1.00 1.00 1.00 1.00 1.00 1.00 1.00 1.00 1.00 1.00 1.00 1.00 1.00 1.00 1.00 1.00 1.00 1.00 1.00 1.00 1.00 1.00 1.00 1.00 1.00 1.00 1.00 1.00 1.00 1.00 1.00 1.00 1.00 1.00 1.00 1.00 1.00 1.00 1.00 1.00 1.00 1.00 1.00 1.00 1.00 1.00 1.00 1.00 1.00 1.00 1.00 1.00 1.00 1.00 1.00 1.00 1.00 1.00 1.00 1.00 1.00 1.00 1.00 1.00 1.00 1.00 1.00 1.00 1.00 1.00 1.00 1.00 1.00 1.00 1.00 1.00 1.00 1.00 1.00 1.00 1.00 1.00 1.00 1.00 1.00 1.00 1.00 1.00 1.00 1.00 1.00 1.00 1.00 1.00 1.00 1.00 1.00 1.00 1.00 1.00 1.00 1.00 1.00 1.00 1.00 1.00 1.00 1.00 1.00 1.00 1.00 1.00 1.00 1.00 1.00 1.00 1.00 1.00 1.00 1.00 1.00 1.00 1.00 1.00 1.00 1.00 1.00 1.00 1.00 1.00 1.00 1.00 1.00 1.00 1.00 1.00 1.00 1.00 1.00 1.00 1.00 1.00 1.00 1.00 1.00 1.00 1.00 1.00 1.00 1.00 1.00 1.00 1.00 1.00 1.00 1.00 1.00 1.00 1.00 1.00 1.00 1.00 1.00 1.00 1.00 1.00 1.00 1.00 1.00 1.00 1.00 1.00 1.00 1.00 1.00 1.00 1.00 1.00 1.00 1.00 1.00 1.00 1.00 1.00 1.00 1.00 1.00 1.00 1.00 1.00 1.00 1.00 1.00 1.00 1.00 1.00 1.00 1.00 1.00 1.00 1.00 1.00 1.00 1.00 1.00 1.00 1.00 1.00 1.00 1.00 1.00 1.00 1.00 1.00 1.00 1.00 1.00 1.00 1.00 1.00 1.00 1.00 1.00 1.00 1.00 1.00 1.00 1.00 1.00 1.00 1.00 1.00 1.00 1.00 1.00 1.00 1.00 1.00 1.00 1.00 1.00 1.00 1.00 1.00 1.00 1.00 1.00 1.00 1.00 1.00 1.00 1.00 1.00 1.00 1.00 1.00 1.00 1.00 1.00 1.00 1.00 1.00 1.00 1.00 1.00 1.00 1.00 1.00 1.00 1.00 1.00 1.00 1.00 1.00 1.00 1.00 1.00 1.00 1.00 1.00 1.00 1.00 1.00 1.00 1.00 1.00 1.00 1.00 1.00 1.00 1.00 1.00 1.00 1.00 1.00 1.00 1.00 1.00 1.00 1.00 1.00 1.00 1.00 1.00 1.00 1.00 1.00 1.00 1.00 1.00 1.00 1.00 1.00 1.00 1.00 1.00 1.00 1.00 1.00 1.00 1.00 1.00 1.00 1.00 1.00 1.00 1.00 1.00 1.00 1.00 1.00 1.00 1.00 1.00 1.00 1.00 1.00 1.00 1.00 1.00 1.00 1.00 1.00 1.00 1.00 1.00 1.00 1.00 1.00 1.00 1.00 1.00 1.00 1.00 1.00 1.00 1.00 1.00 1.00 1.00 1.00 1.00 1.00 1.00 1.00 1.00 1.00 1.00 1.00 1.00 1.00 1.00 1.00 1.00 1.00 1.00 1.00 1.00 1.00 1.00 1.00 1.00 1.00 1.00 1.00 1.00 1.00 1.00 1.00 1.00 1.00 1.00 1.00 1.00 1.00 1.00 1.00 1.00 1.00 1.00 1.00 1.00 1.00 1.00 1.00 1.00 1.00 1.00 1.00 1.00 1.00 1.00 1.00 1.00 1.00 1.00 1.00 1.00 1.00 1.00 1.00 1.00 1.00 1.00 1.00 1.00 1.00 1.00 1.00 1.00 1.00 1.00 1.00 1.00 1.00 1.00 1.00 1.00 1.00 1.00 1.00 1.00 1.00 1.00 1.00 1.00 1.00 1.00 1.00 1.00 1.00 1.00 1.00 1.00 1.00 1.00 1.00 1.00 1.00 1.00 1.00 1.00 1.00 1.00 1.00 1.00 1.00 1.00 1.00 1.00 1.00 1.00 1.00 1.00 1.00 1.00 1.00 1.00 1.00 1.00 1.00 1.00 1.00 1.00 1.00 1.00 1.00 1.00 1.00 1.00 1.00 1.00 1.00 1.00 1.00 1.00 1.00 1.00 1.00 1.00 1.00 1.00 1.00 1.00 1.00 1.00 1.00 1.00 1.00 1.00 1.00 1.00 1.00 1.00 1.00 1.00 1.00 1.00 1.00 1.00 1.00 1.00 1.00 1.00 1.00 1.00 1.00 1.00 1.00 1.00 1.00 1.00 1.00 1.00 1.00 1.00 1.00 1.00 1.00 1.00 1.00 1.00 1.00 1.00 1.00 1.00 1.00 1.00 1.00 1.00 1.00 1.00 1.00 1.00 1.00 1.00 1.00 1.00 1.00 1.00 1.00 1.00 1.00 1.00 1.00 1.00 1.00 1.00 1.00 1.00 1.00 1.00 1.00 1.00 1.00 1.00 1.00 1.00 1.00 1.00 1.00 1.00 1.00 1.00 1.00 1.00 1.00 1.00 1.00 1.00 1.00 1.00 1.00 1.00 1.00 1.00 1.00 1.00 1.00 1.00 1.00 1.00 1.00 1.00 1.00 1.00 1.00 1.00 1.00 1.00 1.00 1.00 1.00 1.00 1.00 1.00 1.00 1.00 1.00 1.00 1.00 1.00 1.00 1.00 1.00 1.00 1.00 1.00 1.00 1.00 1.00 1.00 1.00 1.00 1.00 1.00 1.00 1.00 1.00 1.00 1.00 1.00 1.00 1.00 1.00 1.00 1.00 1.00 1.00 1.00 1.00 1.00 1.00 1.00 1.00 1.00 1.00 1.00 1.00 1.00 1.00 1.00 1.00 1.00 1.00 1.00 1.00 1.00 1.00 1.00 1.00 1.00 1.00 1.00 1.00 1.00 1.00 1.00 1.00 1.00 1.00 1.00 1.00 1.00 1.00 1.00 1.00 1.00 1.00 1.00 1.00 1.00 1.00 1.00 1.00 1.00 1.00 1.00 1.00 1.00 1.00 1.00 1.00 1.00 1.00 1.00 1.00 1.00 1.00 1.00 1.00 1.00 1.00 1.00 1.00 1.00 1.00 1.00 1.00 1.00 1.00 1.00 1.00 1.00 1.00 1.00 1.00 1.00 1.00 1.00 1.00 1.00 1.00 1.00 1.00 1.00 1.00 1.00 1.00</beamAttenuationFactors>
				<commonCountingTime unit="seconds">1.00</commonCountingTime>
				<intensities unit="counts">2628764 3449514 2767175 1851875 949050 396931 232531 241927 276140 311776 346482 383042 420112 455468 490926 498359 554433 564151 598951 629023 659489 710047 723311 749049 793435 801052 870520 883258 925412 942746 974263 981092 1034539 1053186 1091138 1118059 1149575 1168485 1225478 1224428 1291664 1263824 1331585 1314513 1338020 1380436 1400003 1415498 1416680 1477613 1475774 1493240 1481027 1477350 1531848 1488906 1474461 1437560 1386871 1299149 1258308 1218387 1180173 1138676 1079319 1008932 982405 914250 852661 792910 724230 659095 607749 527512 479318 419436 382012 326326 278465 233304 193535 159119 129968 105102 84705 69276 56787 47511 40824 36858 35274 34617 35192 37323 39826 42388 45503 48303 51318 53426 55631 57728 58470 59723 59826 59272 59224 57905 56261 54266 52085 49889 46270 43299 40695 37290 33880 30519 27521 24647 21360 18546 16071 13629 11222 9302 7483 5905 4656 3637 2637 2063 1581 1268 1141 1194 1367 1488 1738 2208 2547 2910 3560 3992 4460 4896 5399 5868 5953 6175 6480 6549 6791 6777 6650 6788 6606 6361 6243 5952 5766 5396 5048 4933 4385 3929 3524 3107 2792 2508 2134 1922 1679 1362 1147 1001 807 655 597 552 529 445 458 484 514 561 560 676 732 767 860 968 957 995 1050 1094 1166 1151 1141 1153 1160 1101 1085 1009 1021 976 926 868 810 746 665 580 535 510 468 395 337 330 351 341 338 357 361 395 446 473 524 623 642 672 734 791 863 902 976 1035 1083 1072 1034 1111 1055 1067 1073 1068 1049 1035 965 963 902 798 769 739 673 596 570 455 393 357 307 224 179 144 116 83 70 37 41 28 46 82 87 127 166 209 234 319 356 403 452 510 608 652 700 720 784 856 872 1018 1010 1017 984 1008 1037 987 1034 1074 959 919 942 831 823 755 744 629 612 573 498 472 386 354 304 220 197 178 129 119 88 70 55 53 67 80 63 86 108 107 180 214 225 281 285 378 405 471 456 509 570 585 602 661 677 728 715 756 676 737 745 729 701 712 662 645 675 586 545 495 493 458 402 367 326 308 282 239 183 165 160 112 114 84 72 70 64 55 72 60 80 86 89 129 147 164 204 189 255 248 278 318 328 341 360 400 388 440 448 464 491 472 458 475 470 465 454 428 411 375 372 365 343 299 285 258 263 219 214 200 150 154 128 128 68 74 76 56 47 49 41 38 29 41 35 54 57 66 73 98 91 116 125 138 163 163 197 188 228 241 202 209 232 261 251 224 238 224 273 252 231 237 232 203 182 184 195 165 147 130 129 129 90 110 82 64 64 59 48 30 35 22 22 23 20 12 21 27 25 19 25 32 41 45 50 62 70 70 84 81 97 89 108 106 109 127 103 139 134 113 121 116 110 116 126 97 99 109 93 70 65 78 75 67 54 53 56 32 33 29 25 30 25 21 17 13 8 8 9 7 10 13 7 15 7 17 9 20 16 24 26 24 34 38 44 37 46 40 45 48 50 50 44 54 51 41 45 61 36 43 38 49 45 31 38 30 27 34 24 26 24 28 20 14 21 13 10 12 5 4 6 8 3 6 9 6 2 8 8 9 12 11 8 7 8 9 13 15 15 20 16 7 19 17 17 12 21 17 18 17 16 18 15 19 25 17 17 15 18 17 13 13 9 10 10 6 15 12 12 12 13 4 7 6 5 9 10 10 9 6 6 9 6 7 7 5 6 7 10 5 6 6 6 6 10 5 5 3 6 7 9 5 7 5 5 7 6 8 8 9 12 5 6 11 9 8 10 12 7 9 10 13 12 12 5 11 10 9 4 6 10 12 7 14 8 6 11 9 2 5 10 8 4 4 3 3 2 5 2 2 5 1 3 3 2 4 2 6 8 2 2 5 5 4 5 4 8 8 6 5 10 3 7 7 4 10 4 11 9 11 5 7 12 4 7 6 11 6 11 3 4 8 8 3 6 5 6 4 4 5 4 5 2 7 4 0 1 2 0 4 3 3 3 4 3 3 3 5 6 4 5 8 5 9 8 7 2 2 6 5 4 9 7 5 5 6 6 1 2 4 10 3 9 2 5 3 5 7 5 4 1 3 1 3 1 1 0 1 3 0 3 3 0 2 5 1 0 3 6 0 2 1 1 1 3 3 3 5 3 5 2 2 3 3 1 6 5 10 7 9 4 5 5 4 4 3 9 3 1 3 1 3 1 5 2 1 1 0 3 0 1 0 0 1 4 2 2 1 0 3 1 1 2 5 1 1 2 2 1 2 7 4 2 4 5 2 3 2 3 2 2 5 4 3 1 6 4 2 2 7 2 5 0 3 2 4 2 2 2 0 5 3 1 2 1 3 1 1 2 1 0 2 2 2 1 2 3 0 0 4 0 1 1 2 2 5 0 3 0 0 1 2 2 1 3 1 2 1 0 1 1 0 2 3 0 2 3 3 2 0 1 0 0 1 2 2 2 1 1 0 1 2 1 0 2 1 1 2 2 3 0 0 0 0</intensities>
			</dataPoints>
		</scan>
	</xrdMeasurement>
</xrdMeasurements>
